# Wavelength, R, G, B, G2, R_err, G_err, B_err, G2_err
3.900000000000000000e+02,1.222136486282072955e-03,5.479061688360022109e-03,6.008529239118668742e-03,5.484104738561333681e-03,2.270406102857782879e-04,3.395856553121484535e-04,3.757819289807566858e-04,3.569462187113207224e-04
3.920000000000000000e+02,1.220493981408972113e-03,5.498418505396025953e-03,5.949386650512699347e-03,5.487834574817805795e-03,2.246968223499992993e-04,3.328556637115396774e-04,3.661737169024611343e-04,3.520172897600896619e-04
3.940000000000000000e+02,1.272613764048101826e-03,5.553995640394358141e-03,6.079556904038409954e-03,5.554121894057236636e-03,2.163811414097450254e-04,3.247723096517598270e-04,3.558363598437624801e-04,3.437512858018140684e-04
3.960000000000000000e+02,1.675762056916492481e-03,5.928588487081439679e-03,7.554109461250849838e-03,5.914582474566789337e-03,2.276407103853094784e-04,3.256404034735879065e-04,3.762515973458993883e-04,3.428997063705172790e-04
3.980000000000000000e+02,3.622665284144224382e-03,7.487839798598371933e-03,1.553918544695581487e-02,7.466528414109245212e-03,2.726506403114941344e-04,3.513298391653050579e-04,4.966078584126364754e-04,3.655596953721991678e-04
4.000000000000000000e+02,8.842652862171994713e-03,1.166845550356157904e-02,3.898642110221817864e-02,1.160747092037394367e-02,3.811357652877762946e-04,4.165906343609148115e-04,7.304926643085914379e-04,4.298848100045410945e-04
4.020000000000000000e+02,1.507631850607509504e-02,1.653222204636395007e-02,7.154137166032528694e-02,1.643564371415486697e-02,4.830638442070637312e-04,4.909271076890317888e-04,9.917628518600098142e-04,4.983246852060500701e-04
4.040000000000000000e+02,2.087016393894536651e-02,2.112499947223259178e-02,1.087002201155046893e-01,2.097120824082553819e-02,5.843773827128736185e-04,5.752054902249296260e-04,1.256432863777175255e-03,5.788910973477505179e-04
4.060000000000000000e+02,2.633557120589965703e-02,2.553489415823569433e-02,1.515064949528691363e-01,2.530410159219003904e-02,6.828719122845497034e-04,6.581851854876941479e-04,1.566310835424598435e-03,6.580285210773861642e-04
4.080000000000000000e+02,3.110652303758415504e-02,2.976599829137836772e-02,1.978726408426220162e-01,2.945660656226984850e-02,7.720923796507149928e-04,7.450275002089126958e-04,1.873240485823640189e-03,7.366883133729288345e-04
4.100000000000000000e+02,3.426346425341921659e-02,3.310258720878569288e-02,2.422963056669183990e-01,3.272054952832501029e-02,8.222670210885508341e-04,8.074607400518784726e-04,2.151532880329069461e-03,8.008246089548706889e-04
4.120000000000000000e+02,3.684284671640476738e-02,3.640056074328471003e-02,2.888218935251843367e-01,3.594537397414712676e-02,8.814076331137766411e-04,8.764713361414660934e-04,2.364060867105677918e-03,8.678632893086941566e-04
4.140000000000000000e+02,3.854751318620826955e-02,3.908590640943447603e-02,3.318265183846629274e-01,3.855560521185335404e-02,9.097028788277810273e-04,9.390199447717288705e-04,2.420079045779825570e-03,9.242641266338452819e-04
4.160000000000000000e+02,3.924765825816939335e-02,4.074334279538763953e-02,3.678950470229184200e-01,4.016391314224801445e-02,9.364013628429730153e-04,9.926016437271729855e-04,2.518029516716431548e-03,9.647362333580027354e-04
4.180000000000000000e+02,3.886427366826760571e-02,4.101941645115234764e-02,3.958521882733287423e-01,4.039388914717928492e-02,9.338765604113137509e-04,1.014268363984875470e-03,2.568639215311200891e-03,1.002129409472158044e-03
4.200000000000000000e+02,3.809791043114095499e-02,4.032991853494512224e-02,4.229828989354288415e-01,3.967919901366378371e-02,9.218463500995845595e-04,1.025768273756159921e-03,2.617709478483373764e-03,1.003865905447126399e-03
4.220000000000000000e+02,3.753913910266784559e-02,3.937825469881633955e-02,4.557646304679227600e-01,3.866286535173668604e-02,9.106309204116128661e-04,1.024601232097859796e-03,2.788673762475181710e-03,1.026641415406452738e-03
4.240000000000000000e+02,3.650054074190818565e-02,3.769095272932306701e-02,4.834301577699262054e-01,3.692711321147531395e-02,9.009469753860449527e-04,1.018654569233629764e-03,2.870454756731654049e-03,9.985889459783107817e-04
4.260000000000000000e+02,3.524175345943792587e-02,3.599660289313945383e-02,5.072137721493570339e-01,3.518738002895186595e-02,6.787121492377573952e-04,7.587194433321415438e-04,2.343458339825240950e-03,7.416834642039950472e-04
4.280000000000000000e+02,3.387135748780925604e-02,3.471765200967333320e-02,5.265415482482403986e-01,3.387896733382383951e-02,6.549890346121636396e-04,7.579261031073061339e-04,2.404177285984754938e-03,7.337281033655579810e-04
4.300000000000000000e+02,3.271978164755915547e-02,3.452402008972494524e-02,5.455177778755604390e-01,3.364146134309450170e-02,6.445634834536975548e-04,7.705311897468614243e-04,2.455343640845401940e-03,7.396717995456012894e-04
4.320000000000000000e+02,3.142288658489277020e-02,3.522900700269626650e-02,5.619351914900410083e-01,3.431250072987595406e-02,6.173856382996668370e-04,7.824031321027746658e-04,2.488174032936951458e-03,7.547746285080542432e-04
4.340000000000000000e+02,3.058801800151278796e-02,3.744379425606737810e-02,5.859629542240272215e-01,3.650048464946294841e-02,6.089025226774795636e-04,8.210079473968554193e-04,2.555024396268716549e-03,8.014257830761748998e-04
4.360000000000000000e+02,2.963457069575050479e-02,4.036007905365069509e-02,6.065142239022316417e-01,3.939304026705951756e-02,5.793260127776156789e-04,8.693734342084207369e-04,2.574281200505075095e-03,8.505922559213645621e-04
4.380000000000000000e+02,2.894063440181822780e-02,4.425912808390903425e-02,6.313387165629406050e-01,4.323903384378749437e-02,5.772089294158573797e-04,9.312761892795496949e-04,2.663848210887293649e-03,9.053341671168267137e-04
4.400000000000000000e+02,2.789357414506203614e-02,4.790070237610832837e-02,6.479630255068853373e-01,4.684761797121131388e-02,5.545637572862758928e-04,9.899593183900930442e-04,2.698067816788742284e-03,9.632458451373051341e-04
4.420000000000000000e+02,2.715472404730644163e-02,5.192723279962938726e-02,6.705467711019602595e-01,5.084606156269789318e-02,5.484633998410195707e-04,1.050758449719647967e-03,2.757759613166112754e-03,1.022857899366028545e-03
4.440000000000000000e+02,2.606200128840416991e-02,5.465016633528497342e-02,6.847219485388676974e-01,5.354015623653474859e-02,5.254742905047604965e-04,1.088567113761250123e-03,2.819108444465232705e-03,1.065571996344582325e-03
4.460000000000000000e+02,2.503022000910520503e-02,5.613135808283691713e-02,6.997090154461343969e-01,5.499870042882910870e-02,5.113981046030425213e-04,1.123679738856088114e-03,2.885780569250576914e-03,1.104196269962455165e-03
4.480000000000000000e+02,2.379097978803601174e-02,5.566267909289214499e-02,7.091565491192954873e-01,5.449773402730045957e-02,4.964549843196867538e-04,1.129181828202052663e-03,3.005216429739594828e-03,1.114856769920587578e-03
4.500000000000000000e+02,2.272200905836211510e-02,5.397954510535288297e-02,7.222267623960199057e-01,5.280172643356564194e-02,7.479118921144904371e-04,1.676051929138884771e-03,4.554178347564427631e-03,1.637550918291597697e-03
4.520000000000000000e+02,2.192004301511460071e-02,5.198889168128247029e-02,7.362587240418514423e-01,5.080392051554780825e-02,7.275192030213789357e-04,1.655192083406865607e-03,4.645131179470276574e-03,1.613135470725491488e-03
4.540000000000000000e+02,2.106324130035347117e-02,5.005091186245491652e-02,7.457274337152978161e-01,4.882467517150404501e-02,7.126629179430779689e-04,1.652028044913693688e-03,4.681993173602808089e-03,1.608733420151804835e-03
4.560000000000000000e+02,2.050475236262023354e-02,4.962053632033369688e-02,7.554362710442817930e-01,4.836899646676066922e-02,7.011085865279316747e-04,1.678309080941201448e-03,4.712845342108925618e-03,1.639096098666402131e-03
4.580000000000000000e+02,2.032759109795197888e-02,5.182815529883463834e-02,7.661540990637799586e-01,5.055515239544750711e-02,6.971636544030626560e-04,1.752503156501697325e-03,4.696228414606381553e-03,1.733973329337694250e-03
4.600000000000000000e+02,2.037418932281085532e-02,5.734781204712653679e-02,7.746806512981772030e-01,5.605031106940413371e-02,6.818536764762561479e-04,1.933937948285606662e-03,4.717718836020777864e-03,1.897752868781754382e-03
4.620000000000000000e+02,2.063546055534857052e-02,6.670986793873512344e-02,7.769089990399217216e-01,6.540590373790801382e-02,6.879875859396853734e-04,2.186853919893297707e-03,4.667796898863136798e-03,2.133075797545470106e-03
4.640000000000000000e+02,2.120931956280168451e-02,8.181649088047017460e-02,7.791187460872274206e-01,8.048372438578969834e-02,6.952999313588072682e-04,2.525410952505602238e-03,4.629414684777961864e-03,2.470044923054333288e-03
4.660000000000000000e+02,2.206561893887626705e-02,1.034810319488541491e-01,7.779957540829798290e-01,1.021538977055010122e-01,6.966529608862959567e-04,2.920981007102617117e-03,4.546788701237038446e-03,2.917204463267939266e-03
4.680000000000000000e+02,2.326809980287366381e-02,1.350055228352641523e-01,7.800363344025953438e-01,1.336973527201875678e-01,7.143983976755424389e-04,3.450393479935009219e-03,4.605124769314298400e-03,3.453123565090771268e-03
4.700000000000000000e+02,2.451820862573686824e-02,1.758014128454128133e-01,7.734144728411664893e-01,1.745283728653002076e-01,7.332157197832376303e-04,4.025745170695167047e-03,4.524227528399097503e-03,4.007715538184524091e-03
4.720000000000000000e+02,2.618652114567549677e-02,2.321618774837555799e-01,7.710780633840834675e-01,2.308933847667745676e-01,7.575180474629260525e-04,4.602718621884079389e-03,4.514073356849035087e-03,4.584921040765886809e-03
4.740000000000000000e+02,2.768206954580487364e-02,2.995989824785963984e-01,7.597891927299633696e-01,2.984165292184612905e-01,7.904468020168664262e-04,5.006866782569256366e-03,4.474854518565279590e-03,4.989861562649446948e-03
4.760000000000000000e+02,2.943251006296410816e-02,3.793248203508860494e-01,7.564103356821466617e-01,3.781300075567998742e-01,8.186997159310809014e-04,5.314354548238009110e-03,4.589610499980331486e-03,5.267705547728112128e-03
4.780000000000000000e+02,3.083798235491923972e-02,4.618523374021678563e-01,7.474863705185816887e-01,4.606710186721434397e-01,8.649526090733032895e-04,5.419994010109365629e-03,4.569324677156870115e-03,5.447676761692298031e-03
4.800000000000000000e+02,3.175188142474535957e-02,5.411976490529660788e-01,7.347695761325168107e-01,5.400192506894673228e-01,8.846125260417965009e-04,5.417975976414686305e-03,4.598492420620887110e-03,5.388775709766153131e-03
4.820000000000000000e+02,3.210357083229219838e-02,6.130352252901339893e-01,7.188374330974930393e-01,6.119009174761627090e-01,9.072855805386462061e-04,5.288001065813330119e-03,4.531045018365061246e-03,5.389372936129896603e-03
4.840000000000000000e+02,3.222580446559888956e-02,6.768816107908147695e-01,7.024719761425844977e-01,6.757156428555607386e-01,9.085730800900212881e-04,5.214428181744791210e-03,4.523901379360821713e-03,5.251238279429461427e-03
4.860000000000000000e+02,3.221944646302971754e-02,7.335189855126651448e-01,6.866235036824824833e-01,7.324056375447220990e-01,9.236212634303497034e-04,5.296666193979357971e-03,4.516145462655926646e-03,5.354444938950811937e-03
4.880000000000000000e+02,3.201908336302983216e-02,7.801250712264959919e-01,6.656401455747009699e-01,7.790358860345143466e-01,9.231829260780239840e-04,5.385415835324955207e-03,4.546064782603660530e-03,5.424948497327847924e-03
4.900000000000000000e+02,3.198134748227490082e-02,8.200068809668317193e-01,6.422648412550981956e-01,8.188557201004179609e-01,9.409009283081797232e-04,5.476428506459597549e-03,4.494753501203520296e-03,5.535720825428241433e-03
4.920000000000000000e+02,3.223099097497573312e-02,8.534237298160856078e-01,6.165015401052101884e-01,8.522568558190359855e-01,9.430678379015992483e-04,5.567218559401098006e-03,4.445684545451209467e-03,5.656216768452320375e-03
4.940000000000000000e+02,3.280828724140063407e-02,8.816091032891987256e-01,5.905526677428657445e-01,8.804208493427391202e-01,9.454682274491919489e-04,5.629406317921858104e-03,4.451700938867405102e-03,5.707509652413585328e-03
4.960000000000000000e+02,3.358087739200057292e-02,9.025316232268532080e-01,5.625936358457775954e-01,9.013998967655558747e-01,9.779649624820109782e-04,5.738964918495612078e-03,4.428608629462330026e-03,5.874914318861937899e-03
4.980000000000000000e+02,3.477713754768349541e-02,9.255344548728875465e-01,5.383290696621709781e-01,9.244933733771378837e-01,9.865019577217114862e-04,5.906487340261465900e-03,4.399844882244696546e-03,5.927579621960324049e-03
5.000000000000000000e+02,3.589799317629185915e-02,9.349522179483532591e-01,5.077715297023688290e-01,9.338864635185770702e-01,1.014613034285824326e-03,5.926098745147256701e-03,4.296154236611259176e-03,6.002169279657959024e-03
5.020000000000000000e+02,3.752044149594085248e-02,9.481664673002677679e-01,4.819043645496352557e-01,9.471525245067543564e-01,1.044351265506915502e-03,6.079011872050466177e-03,4.271594289224745801e-03,6.103542538339164908e-03
5.040000000000000000e+02,3.912359383553021958e-02,9.530690190863841948e-01,4.526160608642816885e-01,9.521567162045365684e-01,1.049246122866563050e-03,6.057325350502792277e-03,4.193009541165364402e-03,6.219050473616177799e-03
5.060000000000000000e+02,4.152196922886595282e-02,9.674173378522793465e-01,4.281647334905046010e-01,9.664980910485069243e-01,1.097910572741077556e-03,6.258799505701578489e-03,4.097667848088682764e-03,6.361403706175196293e-03
5.080000000000000000e+02,4.402162404536227869e-02,9.716395316963735151e-01,4.005649983176995388e-01,9.709129936163456431e-01,1.129421146850743832e-03,6.224472378472965632e-03,4.047368045107641553e-03,6.439919582282040839e-03
5.100000000000000000e+02,4.738167838794788561e-02,9.818515479217303499e-01,3.755204894831477014e-01,9.811182085265693908e-01,1.169367622791713099e-03,6.443249760098014763e-03,4.027444776273935573e-03,6.497403419187819558e-03
5.120000000000000000e+02,5.101502785389969152e-02,9.826228626268010968e-01,3.466056934741309492e-01,9.819096217658963566e-01,1.212216449700918982e-03,6.507395845971263547e-03,3.869490486130423412e-03,6.629861713105577974e-03
5.140000000000000000e+02,5.548200956240943726e-02,9.812965294353304113e-01,3.182435782842946148e-01,9.806994347688313685e-01,1.272544226853843021e-03,6.581701697445575816e-03,3.711224871411500197e-03,6.669095576492108275e-03
5.160000000000000000e+02,6.073268807897895527e-02,9.831478102527463347e-01,2.923930903722374852e-01,9.826353052556762169e-01,1.336011157472353746e-03,6.569503614672583640e-03,3.580390375499889564e-03,6.668390173604842909e-03
5.180000000000000000e+02,6.682382725883656560e-02,9.889781617735368124e-01,2.687550124135114071e-01,9.885602704911228278e-01,1.404880009565789845e-03,6.601092665068138826e-03,3.433572468859704286e-03,6.711115604266201448e-03
5.200000000000000000e+02,7.350311865807410139e-02,9.945548900736406184e-01,2.473570719877092594e-01,9.943735619972824402e-01,1.482111926463724246e-03,6.705111492688350765e-03,3.306692293243527082e-03,6.749931420768343591e-03
5.220000000000000000e+02,7.983651190717698520e-02,9.968737078151439501e-01,2.273493332491676733e-01,9.966358816810361176e-01,1.579032882045420388e-03,6.602108854300211063e-03,3.168890355826945327e-03,6.766619142692236258e-03
5.240000000000000000e+02,8.534524408362501036e-02,1.000000000000000000e+00,2.105453652372154816e-01,9.996947140276269961e-01,1.656896353294490384e-03,6.602797877492820253e-03,3.033393747735537230e-03,6.712740053695205426e-03
5.260000000000000000e+02,8.910276803045914795e-02,9.983831334318942208e-01,1.952683765918124814e-01,9.984627766133676863e-01,1.693862330879489578e-03,6.600646034918801301e-03,2.906707239163146012e-03,6.642006591149908316e-03
5.280000000000000000e+02,9.053165235493981777e-02,9.971235981566157758e-01,1.825573889942993244e-01,9.972737395160247154e-01,1.736235691365674381e-03,6.530028484126099673e-03,2.799820445559787156e-03,6.545490960637588736e-03
5.300000000000000000e+02,8.958673679178107141e-02,9.949994346538416634e-01,1.715531367257196182e-01,9.949885963826589075e-01,1.716688409155293698e-03,6.478083071125149972e-03,2.667493086678512405e-03,6.619222522198170248e-03
5.320000000000000000e+02,8.703166402888852515e-02,9.998887021605949998e-01,1.633784113577282093e-01,9.999811823155748680e-01,1.704607935891324635e-03,6.633261012320167994e-03,2.592314206303275755e-03,6.688082743838682197e-03
5.340000000000000000e+02,8.153817957172863895e-02,9.938048136288912815e-01,1.542946903043840856e-01,9.940643422609778401e-01,1.663445182036089268e-03,6.592253543787281872e-03,2.523376657189847164e-03,6.614098159298665083e-03
5.360000000000000000e+02,7.498221799031146162e-02,9.853016749917987704e-01,1.458188130547950490e-01,9.856179197119658841e-01,1.594138347986946485e-03,6.624125628868862171e-03,2.413465088766389693e-03,6.824926490895156378e-03
5.380000000000000000e+02,6.797058287337742755e-02,9.757730171723041357e-01,1.377391293862429145e-01,9.759610665108355843e-01,1.516435037614226409e-03,6.664261689695347157e-03,2.308920247113733018e-03,6.789186183999353086e-03
5.400000000000000000e+02,6.157581456614000942e-02,9.706975792101142364e-01,1.304387496774817579e-01,9.708913410824203671e-01,1.414597070436113182e-03,6.776914110866596487e-03,2.238174545688148206e-03,6.844314373694105821e-03
5.420000000000000000e+02,5.538075154324965943e-02,9.536820431928018094e-01,1.218377607020311171e-01,9.540424842574480868e-01,1.345433976532133197e-03,6.956137661451007939e-03,2.120132699636541242e-03,7.055254225159417539e-03
5.440000000000000000e+02,5.030028817244783235e-02,9.382789903910847551e-01,1.135770697375105137e-01,9.386206759685205014e-01,1.282098840889951382e-03,6.979038118870713528e-03,2.006999342056680919e-03,7.021113115454278783e-03
5.460000000000000000e+02,4.676489647926485027e-02,9.325821658591153529e-01,1.059906745017497043e-01,9.330604392383160528e-01,1.241834716730265886e-03,7.004820446418902856e-03,1.960249576429954829e-03,7.117891320620783717e-03
5.480000000000000000e+02,4.452451953617572039e-02,9.343760066658594043e-01,9.908391530564911176e-02,9.346740113719611553e-01,1.213440896905972977e-03,7.202663405615606848e-03,1.900056436952219860e-03,7.288792825720775276e-03
5.500000000000000000e+02,4.297746505484193597e-02,9.282692368012940287e-01,9.184261061239995527e-02,9.285798602113106703e-01,1.183158827262814150e-03,7.493995145181750125e-03,1.791816194043119358e-03,7.533941041021819350e-03
5.520000000000000000e+02,4.166126734820065070e-02,9.083181235974845391e-01,8.349454458853990124e-02,9.087871462382201004e-01,1.170009249920916277e-03,7.475374825707989737e-03,1.709830427752683174e-03,7.581015686334497024e-03
5.540000000000000000e+02,4.088969742559265402e-02,8.925851017679818922e-01,7.528619869696499822e-02,8.931998581293949524e-01,1.145195457018296148e-03,7.307093844735547752e-03,1.582694477340559165e-03,7.413009296287958495e-03
5.560000000000000000e+02,4.124303675124962876e-02,8.900537847924271384e-01,6.877607593973218691e-02,8.907350505740965207e-01,1.149103602295302234e-03,7.577302808794022376e-03,1.515290008111750504e-03,7.677149104971798046e-03
5.580000000000000000e+02,4.210967468183277052e-02,8.859459992212908030e-01,6.346275430733261391e-02,8.865827523542056943e-01,1.172300713415770938e-03,7.502900704890369012e-03,1.451011618556769921e-03,7.530459563100182566e-03
5.600000000000000000e+02,4.271198361528275034e-02,8.623399698272709024e-01,5.788709507414526584e-02,8.631759881235669951e-01,7.544808221312657073e-04,5.190482698578754474e-03,8.954380778806799064e-04,5.214225469856752747e-03
5.620000000000000000e+02,4.272918047844632972e-02,8.371406469130232564e-01,5.214113719055056551e-02,8.379428340987619128e-01,7.501469128537522615e-04,4.903883773613297060e-03,8.485494539226559564e-04,4.944756552899308606e-03
5.640000000000000000e+02,4.365230666145014649e-02,8.173294224748323122e-01,4.762711484436574216e-02,8.181088596433757631e-01,7.515383370554261583e-04,4.691131273728829827e-03,7.978243370113792358e-04,4.792220895091918800e-03
